Height,Velocity,Omega
0,0,50.342
0.5,2.706,8.390
1,3.621,4.577
2,4.598,2.397
4,5.608,1.228
6,6.208,0.825
8,6.637,0.622
10,6.970,0.498
12,7.243,0.416
15,7.577,0.333
20,8.009,0.250
25,8.345,0.201
30,8.619,0.167
35,8.851,0.143
40,9.052,0.126
50,9.389,0.100
60,9.663,0.084
75,10.000,0.067
100,10.434,0.050
125,10.771,0.040
150,11.046,0.034
200,11.480,0.025
250,11.817,0.020
300,12.092,0.017